# Band structure: file generated from Abinit band.out file. #
# Eigenvalues (eV) for nkpt= 221 k points. #
# Format: total path length, kx, ky, kz, one or more energy eigenvalues. #
0.0 0.0 0.0 0.0 -61.00918 -60.22617 -27.79030 -26.71605 -25.51128 -25.26763 -24.53626 -23.86595
13.89728 14.89090 15.02738 15.62803 15.75756 16.25396 16.75935 16.76052
17.47372 18.13236 19.20814 19.52812 20.05255 20.51996 22.13937 22.86325
23.56915 24.51609 25.41328 25.42932 26.80901 34.91004 35.94058 36.15101
38.38867 39.45551 40.11747 41.83156 44.33623 44.43961 45.67412 47.21070
47.47397 52.60438 53.06701 56.18806 57.38574 58.00948
0.025 0.0 0.0 0.025 -61.00795 -60.22738 -27.78903 -26.71843 -25.51209 -25.26895 -24.53409 -23.86606
13.91318 14.90956 15.03327 15.63647 15.76299 16.25549 16.76442 16.76634
17.48143 18.13052 19.22289 19.51995 20.04779 20.51035 22.12545 22.86167
23.51289 24.54157 25.39664 25.39876 26.79418 34.96140 35.82303 36.14838
38.55862 39.39468 40.01706 41.93191 44.19016 44.51552 45.66667 47.14201
47.68121 52.57518 53.11895 56.09056 57.39818 57.95264
0.05 0.0 0.0 0.05 -61.00427 -60.23102 -27.78522 -26.72554 -25.51447 -25.27287 -24.52763 -23.86638
13.96024 14.96403 15.05147 15.66087 15.77947 16.26039 16.77964 16.78387
17.50421 18.12507 19.26685 19.49562 20.03359 20.48192 22.08336 22.85834
23.36630 24.59426 25.30241 25.35829 26.75143 35.10866 35.54778 36.13793
38.97811 39.24227 39.74969 42.16539 43.89024 44.72034 45.64267 46.95065
48.19954 52.49067 53.27010 55.82295 57.43410 57.80495
0.075 0.0 0.0 0.075 -60.99818 -60.23704 -27.77887 -26.73726 -25.51826 -25.27930 -24.51704 -23.86699
14.03657 15.04948 15.08342 15.69883 15.80763 16.26960 16.80520 16.81324
17.54108 18.11630 19.33875 19.45558 20.01063 20.43585 22.01355 22.85596
23.16757 24.63150 25.15731 25.30111 26.68569 35.18949 35.37226 36.11166
39.04718 39.21483 39.67622 42.32932 43.73825 44.99459 45.60053 46.68496
48.87278 52.36035 53.50547 55.43725 57.47343 57.62870
0.1 0.0 0.0 0.1 -60.98970 -60.24542 -27.77001 -26.75342 -25.52322 -25.28806 -24.50258 -23.86798
14.13892 15.13101 15.15724 15.74717 15.84861 16.28478 16.84174 16.85434
17.59030 18.10509 19.40032 19.43430 19.98205 20.37438 21.92008 22.85535
22.94449 24.62089 24.97707 25.24007 26.60419 34.88397 35.64617 36.05516
38.78860 38.83456 40.24983 42.23249 43.98162 45.19613 45.59580 46.44268
49.60365 52.20185 53.79744 54.98180 57.34680 57.64144
0.125 0.0 0.0 0.125 -60.97890 -60.25610 -27.75867 -26.77375 -25.52905 -25.29895 -24.48455 -23.86948
14.26259 15.19599 15.27435 15.80301 15.90348 16.30851 16.89055 16.90633
17.64931 18.09340 19.33019 19.53916 19.96060 20.30098 21.81194 22.71480
22.85333 24.55023 24.78060 25.18200 26.51483 34.59525 35.92973 35.94624
38.32848 38.61060 40.83917 42.03554 44.49019 45.09429 45.74859 46.38571
50.32082 52.05151 54.10234 54.49308 57.15287 57.75113
0.15 0.0 0.0 0.15 -60.96586 -60.26902 -27.74487 -26.79797 -25.53540 -25.31169 -24.46336 -23.87164
14.40145 15.27910 15.38507 15.86491 15.97099 16.34448 16.95353 16.96727
17.71443 18.08494 19.24580 19.60943 19.98846 20.22040 21.70197 22.49040
22.84285 24.43092 24.58869 25.12074 26.42416 34.34245 35.75538 36.07176
38.02477 38.38500 41.28552 41.92019 44.90261 45.08846 45.83829 46.62935
50.89942 52.01503 54.00138 54.35847 57.00466 57.42027
0.175 0.0 0.0 0.175 -60.95066 -60.28408 -27.72867 -26.82574 -25.54191 -25.32600 -24.43939 -23.87463
14.54848 15.37839 15.47594 15.93430 16.04372 16.39633 17.03185 17.03388
17.78055 18.08608 19.14954 19.59476 20.11466 20.13782 21.60442 22.27926
22.81497 24.28692 24.42246 25.04669 26.33568 34.12335 35.45359 35.88430
38.07123 38.18266 41.43420 41.94433 44.86381 45.69097 45.90440 47.04404
51.11061 52.28914 53.55146 54.49855 56.95519 57.04999
0.2 0.0 0.0 0.2 -60.93341 -60.30120 -27.71012 -26.85666 -25.54823 -25.34157 -24.41308 -23.87862
14.69671 15.48669 15.54112 16.01692 16.10976 16.46304 17.10152 17.12251
17.84097 18.10651 19.04810 19.51936 20.05694 20.31433 21.53268 22.08637
22.76303 24.14271 24.30027 24.95722 26.24952 33.92782 35.02873 35.41116
38.02902 38.42074 41.23250 42.10764 45.00144 46.09008 46.23822 47.52392
51.06553 52.56832 53.34724 54.49103 56.72777 56.99946
0.225 0.0 0.0 0.225 -60.91422 -60.32026 -27.68927 -26.89035 -25.55401 -25.35808 -24.38485 -23.88380
14.84048 15.58161 15.59022 16.12245 16.16233 16.53509 17.16413 17.21484
17.88849 18.15725 18.95450 19.41860 19.97795 20.55056 21.49706 21.91619
22.68900 24.01976 24.23253 24.85766 26.16392 33.73441 34.49432 34.82231
37.93022 38.88160 40.82140 42.38910 45.12734 46.50424 46.67388 48.03833
51.00451 52.32838 53.66911 54.36603 56.48628 57.07628
0.25 0.0 0.0 0.25 -60.89323 -60.34114 -27.66623 -26.92640 -25.55896 -25.37522 -24.35511 -23.89033
14.97586 15.60060 15.67428 16.20226 16.25764 16.60026 17.21403 17.29481
17.91982 18.24176 18.88581 19.31313 19.89731 20.79285 21.50197 21.78157
22.60770 23.93529 24.21915 24.75902 26.07756 33.49012 33.87929 34.23692
37.87449 39.21489 40.49313 42.76389 45.16097 46.95073 47.10159 48.57456
51.01243 51.93531 54.03173 54.18065 56.38611 57.11371
0.275 0.0 0.0 0.275 -60.87055 -60.36371 -27.64105 -26.96441 -25.56282 -25.39271 -24.32428 -23.89838
15.09976 15.60090 15.73397 16.23248 16.41546 16.65071 17.24284 17.35785
17.94347 18.34305 18.85470 19.22202 19.80999 20.97919 21.54225 21.73043
22.54533 23.89994 24.25310 24.67689 25.99177 33.07792 33.21311 33.78531
37.84440 39.02279 40.70081 43.20801 45.13949 47.05527 47.76234 49.12081
51.07700 51.56483 53.98224 54.21759 56.47239 57.08081
0.3 0.0 0.0 0.3 -60.84635 -60.38784 -27.61384 -27.00397 -25.56539 -25.41027 -24.29273 -23.90808
15.20806 15.58471 15.77569 16.25496 16.57386 16.68331 17.24792 17.41246
17.98087 18.42303 18.86186 19.16803 19.71248 21.01187 21.60079 21.84390
22.53439 23.91632 24.32662 24.63085 25.91313 32.48151 32.51953 33.47415
37.82419 38.51733 41.27529 43.69638 45.09375 47.02352 48.40759 49.66036
50.97574 51.41518 53.79979 54.24460 56.69238 56.99287
0.325 0.0 0.0 0.325 -60.82077 -60.41335 -27.58470 -27.04470 -25.56650 -25.42765 -24.26083 -23.91955
15.29405 15.55433 15.81110 16.27083 16.69855 16.70155 17.24506 17.47054
18.05081 18.44565 18.89852 19.16741 19.60489 20.91121 21.65540 22.07605
22.60311 23.98462 24.43495 24.63759 25.85808 31.81618 31.81674 33.16729
37.80150 38.00101 41.95061 44.19557 45.04039 46.92822 48.99278 50.17295
50.63303 51.49354 53.64198 54.21298 56.88106 56.92175
0.35 0.0 0.0 0.35 -60.79397 -60.44011 -27.55373 -27.08625 -25.56604 -25.44465 -24.22892 -23.93287
15.34958 15.51286 15.85267 16.28083 16.69979 16.76754 17.26681 17.53900
18.15535 18.40994 18.95359 19.20633 19.49255 20.75808 21.69726 22.30589
22.75699 24.11917 24.57724 24.68899 25.86136 31.11971 31.13648 32.78831
37.57133 37.76719 42.65675 44.64836 44.99215 46.86628 49.48859 50.24808
50.64538 51.54249 53.48988 54.19137 56.76805 57.04539
0.375 0.0 0.0 0.375 -60.76611 -60.46794 -27.52104 -27.12828 -25.56395 -25.46107 -24.19732 -23.94812
15.37114 15.46456 15.90782 16.28554 16.69194 16.77040 17.32604 17.61827
18.28072 18.34174 19.01432 19.25213 19.39011 20.58848 21.73625 22.45519
22.97495 24.34688 24.73735 24.75610 25.97832 30.44308 30.46188 32.30869
37.26536 37.71517 43.36069 44.96104 44.96672 46.95860 49.84817 49.87341
51.08180 51.51455 53.29264 54.18707 56.66226 57.01106
0.4 0.0 0.0 0.4 -60.73736 -60.49666 -27.48674 -27.17048 -25.56019 -25.47675 -24.16630 -23.96531
15.36524 15.41465 15.97435 16.28517 16.67962 16.74140 17.40488 17.70296
18.26534 18.40124 19.05570 19.28231 19.33447 20.41573 21.78580 22.50099
23.22659 24.62222 24.78112 24.97565 26.24718 29.80332 29.80554 31.73130
37.08669 37.64234 44.00932 45.01070 45.06866 47.27955 49.43665 50.14112
51.42509 51.49066 52.99304 54.16134 56.55901 56.76527
0.425 0.0 0.0 0.425 -60.70790 -60.52611 -27.45095 -27.21258 -25.55480 -25.49154 -24.13615 -23.98444
15.34443 15.36867 16.04440 16.27924 16.66642 16.70656 17.48832 17.77915
18.20258 18.48051 19.05712 19.28831 19.37058 20.24517 21.85334 22.46581
23.48500 24.60857 25.11642 25.23684 26.64358 29.17150 29.23973 31.08073
37.01694 37.54893 44.44737 45.02819 45.27487 47.73902 49.04577 50.30620
51.30577 51.82918 52.61647 54.06129 56.49985 56.57676
0.45 0.0 0.0 0.45 -60.67791 -60.55610 -27.41380 -27.25433 -25.54780 -25.50530 -24.10708 -24.00549
15.32084 15.33167 16.11039 16.26645 16.65517 16.67746 17.57169 17.81719
18.18513 18.48453 19.06834 19.26964 19.47422 20.07856 21.94014 22.38203
23.73136 24.48910 25.52144 25.52749 27.08862 28.58277 28.82207 30.39221
37.02937 37.43866 44.60493 44.93124 45.82418 47.97984 48.93115 50.38052
51.18704 51.75340 52.55235 53.85853 56.39739 56.53072
0.475 0.0 0.0 0.475 -60.64755 -60.58646 -27.37541 -27.29551 -25.53926 -25.51791 -24.07932 -24.02838
15.30351 15.30748 16.16718 16.24479 16.64843 16.65799 17.65363 17.79395
18.23485 18.42011 19.11480 19.22981 19.60890 19.91619 22.04334 22.27385
23.95622 24.33555 25.80318 25.84872 27.44289 28.07015 28.73541 29.70885
37.09794 37.31887 44.67508 44.82957 46.45835 47.63499 49.38527 50.31186
51.09912 51.32634 52.86768 53.56847 56.36671 56.52484
0.5 0.0 0.0 0.5 -60.61701 -60.61701 -27.33593 -27.33593 -25.52927 -25.52927 -24.05304 -24.05304
15.29814 15.29814 16.21212 16.21212 16.64868 16.64868 17.73108 17.73108
18.32531 18.32531 19.17488 19.17488 19.75866 19.75866 22.15727 22.15727
24.15743 24.15743 25.95525 25.95525 27.69484 27.69484 29.10074 29.10074
37.20048 37.20048 44.74357 44.74357 47.07893 47.07893 49.95037 49.95037
51.09879 51.09879 53.22712 53.22712 56.41046 56.43352
0.5104651803615609 -0.0074 0.0074 0.5 -60.61701 -60.61701 -27.33589 -27.33589 -25.52922 -25.52922 -24.05309 -24.05309
15.29835 15.29835 16.21249 16.21249 16.64870 16.64870 17.72813 17.72813
18.32533 18.32533 19.16839 19.16839 19.76697 19.76697 22.15844 22.15844
24.15436 24.15436 25.95569 25.95569 27.69510 27.69510 29.10122 29.10122
37.20597 37.20597 44.74243 44.74243 47.07499 47.07499 49.94280 49.94280
51.10732 51.10732 53.23087 53.23087 56.39552 56.46058
0.5210717820793591 -0.0149 0.0149 0.5 -60.61702 -60.61702 -27.33578 -27.33578 -25.52908 -25.52908 -24.05325 -24.05325
15.29896 15.29896 16.21359 16.21359 16.64876 16.64876 17.71932 17.71932
18.32533 18.32533 19.15021 19.15021 19.79064 19.79064 22.16194 22.16194
24.14522 24.14522 25.95701 25.95701 27.69585 27.69585 29.10266 29.10266
37.22240 37.22240 44.73900 44.73900 47.06323 47.06323 49.92071 49.92071
51.13217 51.13217 53.24214 53.24214 56.34867 56.35349
0.53153696244092 -0.0223 0.0223 0.5 -60.61703 -60.61703 -27.33558 -27.33558 -25.52884 -25.52884 -24.05352 -24.05352
15.29995 15.29995 16.21534 16.21534 16.64888 16.64888 17.70476 17.70476
18.32520 18.32520 19.12344 19.12344 19.82661 19.82661 22.16771 22.16771
24.13016 24.13016 25.95921 25.95921 27.69705 27.69705 29.10510 29.10510
37.24967 37.24967 44.73330 44.73330 47.04386 47.04386 49.88572 49.88572
51.17145 51.17145 53.26092 53.26092 56.28930 56.29445
0.5420021428024808 -0.0297 0.0297 0.5 -60.61704 -60.61704 -27.33531 -27.33531 -25.52851 -25.52851 -24.05389 -24.05389
15.30130 15.30130 16.21762 16.21762 16.64909 16.64909 17.68465 17.68465
18.32477 18.32477 19.09161 19.09161 19.87145 19.87145 22.17565 22.17565
24.10942 24.10942 25.96229 25.96229 27.69866 27.69866 29.10859 29.10859
37.28762 37.28762 44.72534 44.72534 47.01718 47.01718 49.83993 49.83993
51.22261 51.22261 53.28721 53.28721 56.22493 56.22585
0.5526087445202791 -0.0372 0.0372 0.5 -60.61707 -60.61707 -27.33495 -27.33495 -25.52808 -25.52808 -24.05437 -24.05437
15.30297 15.30297 16.22027 16.22027 16.64942 16.64942 17.65925 17.65925
18.32382 18.32382 19.05779 19.05779 19.92219 19.92219 22.18564 22.18564
24.08337 24.08337 25.96625 25.96625 27.70058 27.70058 29.11321 29.11321
37.33604 37.33604 44.71515 44.71515 46.98362 46.98362 49.78537 49.78537
51.28301 51.28301 53.32100 53.32100 56.16175 56.16249
0.5630739248818399 -0.0446 0.0446 0.5 -60.61709 -60.61709 -27.33452 -27.33452 -25.52756 -25.52756 -24.05495 -24.05495
15.30489 15.30489 16.22307 16.22307 16.64990 16.64990 17.62889 17.62889
18.32214 18.32214 19.02433 19.02433 19.97653 19.97653 22.19748 22.19748
24.05245 24.05245 25.97107 25.97107 27.70271 27.70271 29.11904 29.11904
37.39463 37.39463 44.70276 44.70276 46.94370 46.94370 49.72372 49.72372
51.35027 51.35027 53.36229 53.36229 56.10211 56.10215
0.5735391052434008 -0.052 0.052 0.5 -60.61713 -60.61713 -27.33402 -27.33402 -25.52695 -25.52695 -24.05564 -24.05564
15.30701 15.30701 16.22576 16.22576 16.65057 16.65057 17.59402 17.59402
18.31953 18.31953 18.99292 18.99292 20.03279 20.03279 22.21097 22.21097
24.01722 24.01722 25.97675 25.97675 27.70493 27.70493 29.12619 29.12619
37.46308 37.46308 44.68822 44.68822 46.89803 46.89803 49.65621 49.65621
51.42235 51.42235 53.41100 53.41100 56.04763 56.04795
0.584145706961199 -0.0595 0.0595 0.5 -60.61717 -60.61717 -27.33343 -27.33343 -25.52625 -25.52625 -24.05643 -24.05643
15.30923 15.30923 16.22803 16.22803 16.65145 16.65145 17.55517 17.55517
18.31585 18.31585 18.96474 18.96474 20.08969 20.08969 22.22582 22.22582
23.97831 23.97831 25.98326 25.98326 27.70712 27.70712 29.13481 29.13481
37.54099 37.54099 44.67157 44.67157 46.84724 46.84724 49.58370 49.58370
51.49761 51.49761 53.46705 53.46705 55.99934 55.99937
0.5946108873227599 -0.0669 0.0669 0.5 -60.61721 -60.61721 -27.33277 -27.33277 -25.52546 -25.52546 -24.05732 -24.05732
15.31145 15.31145 16.22956 16.22956 16.65252 16.65252 17.51297 17.51297
18.31105 18.31105 18.94055 18.94055 20.14627 20.14627 22.24170 22.24170
23.93647 23.93647 25.99057 25.99057 27.70913 27.70913 29.14505 29.14505
37.62795 37.62795 44.65288 44.65288 46.79204 46.79204 49.50667 49.50667
51.57478 51.57478 53.53028 53.53028 55.95792 55.95798
0.6050760676843208 -0.0743 0.0743 0.5 -60.61726 -60.61726 -27.33202 -27.33202 -25.52458 -25.52458 -24.05830 -24.05830
15.31357 15.31357 16.22998 16.22998 16.65368 16.65368 17.46822 17.46822
18.30516 18.30516 18.92075 18.92075 20.20181 20.20181 22.25824 22.25824
23.89250 23.89250 25.99866 25.99866 27.71080 27.71080 29.15706 29.15706
37.72349 37.72349 44.63220 44.63220 46.73313 46.73313 49.42539 49.42539
51.65285 51.65285 53.60047 53.60047 55.92375 55.92375
0.6156826694021189 -0.0818 0.0818 0.5 -60.61731 -60.61731 -27.33121 -27.33121 -25.52362 -25.52362 -24.05939 -24.05939
15.31545 15.31545 16.22893 16.22893 16.65475 16.65475 17.42185 17.42185
18.29830 18.29830 18.90546 18.90546 20.25570 20.25570 22.27498 22.27498
23.84731 23.84731 26.00748 26.00748 27.71198 27.71198 29.17102 29.17102
37.82710 37.82710 44.60961 44.60961 46.67124 46.67124 49.33995 49.33995
51.73110 51.73110 53.67731 53.67731 55.89700 55.89700
0.6261478497636798 -0.0892 0.0892 0.5 -60.61737 -60.61737 -27.33031 -27.33031 -25.52257 -25.52257 -24.06057 -24.06057
15.31693 15.31693 16.22605 16.22605 16.65539 16.65539 17.37500 17.37500
18.29069 18.29069 18.89458 18.89458 20.30747 20.30747 22.29144 22.29144
23.80189 23.80189 26.01697 26.01697 27.71253 27.71253 29.18713 29.18713
37.93826 37.93826 44.58521 44.58521 46.60708 46.60708 49.25033 49.25033
51.80906 51.80906 53.76039 53.76039 55.87767 55.87767
0.6366130301252406 -0.0966 0.0966 0.5 -60.61743 -60.61743 -27.32934 -27.32934 -25.52145 -25.52145 -24.06185 -24.06185
15.31784 15.31784 16.22102 16.22102 16.65504 16.65504 17.32896 17.32896
18.28258 18.28258 18.88783 18.88783 20.35674 20.35674 22.30707 22.30707
23.75725 23.75725 26.02708 26.02708 27.71229 27.71229 29.20556 29.20556
38.05640 38.05640 44.55909 44.55909 46.54135 46.54135 49.15646 49.15646
51.88640 51.88640 53.84922 53.84922 55.86556 55.86556
0.6472196318430388 -0.1041 0.1041 0.5 -60.61750 -60.61750 -27.32829 -27.32829 -25.52024 -25.52024 -24.06321 -24.06321
15.31799 15.31799 16.21356 16.21356 16.65295 16.65295 17.28528 17.28528
18.27425 18.27425 18.88483 18.88483 20.40319 20.40319 22.32129 22.32129
23.71448 23.71448 26.03775 26.03775 27.71114 27.71114 29.22650 29.22650
38.18094 38.18094 44.53137 44.53137 46.47473 46.47473 49.05826 49.05826
51.96301 51.96301 53.94321 53.94321 55.86032 55.86032
0.6576848122045996 -0.1115 0.1115 0.5 -60.61757 -60.61757 -27.32717 -27.32717 -25.51896 -25.51896 -24.06467 -24.06467
15.31716 15.31716 16.20343 16.20343 16.64814 16.64814 17.24565 17.24565
18.26596 18.26596 18.88515 18.88515 20.44660 20.44660 22.33353 22.33353
23.67464 23.67464 26.04890 26.04890 27.70894 27.70894 29.25014 29.25014
38.31126 38.31126 44.50216 44.50216 46.40789 46.40789 48.95563 48.95563
52.03884 52.03884 54.04169 54.04169 55.86143 55.86143
0.6681499925661605 -0.1189 0.1189 0.5 -60.61765 -60.61765 -27.32597 -27.32597 -25.51761 -25.51761 -24.06621 -24.06621
15.31508 15.31508 16.19048 16.19048 16.63953 16.63953 17.21182 17.21182
18.25798 18.25798 18.88832 18.88832 20.48679 20.48679 22.34322 22.34322
23.63878 23.63878 26.06048 26.06048 27.70561 27.70561 29.27663 29.27663
38.44674 38.44674 44.47161 44.47161 46.34144 46.34144 48.84852 48.84852
52.11398 52.11398 54.14389 54.14389 55.86824 55.86824
0.6787565942839587 -0.1264 0.1264 0.5 -60.61773 -60.61773 -27.32470 -27.32470 -25.51618 -25.51618 -24.06783 -24.06783
15.31150 15.31150 16.17457 16.17457 16.62619 16.62619 17.18537 17.18537
18.25050 18.25050 18.89386 18.89386 20.52365 20.52365 22.34993 22.34993
23.60783 23.60783 26.07240 26.07240 27.70107 27.70107 29.30611 29.30611
38.58671 38.58671 44.43988 44.43988 46.27599 46.27599 48.73691 48.73691
52.18853 52.18853 54.24901 54.24901 55.87997 55.87997
0.6892217746455196 -0.1338 0.1338 0.5 -60.61782 -60.61782 -27.32336 -27.32336 -25.51469 -25.51469 -24.06954 -24.06954
15.30610 15.30610 16.15564 16.15564 16.60762 16.60762 17.16735 17.16735
18.24370 18.24370 18.90130 18.90130 20.55714 20.55714 22.35335 22.35335
23.58254 23.58254 26.08460 26.08460 27.69527 27.69527 29.33872 29.33872
38.73050 38.73050 44.40715 44.40715 46.21211 46.21211 48.62085 48.62085
52.26263 52.26263 54.35615 54.35615 55.89571 55.89571
0.6996869550070804 -0.1412 0.1412 0.5 -60.61791 -60.61791 -27.32195 -27.32195 -25.51313 -25.51313 -24.07132 -24.07132
15.29856 15.29856 16.13367 16.13367 16.58406 16.58406 17.15809 17.15809
18.23767 18.23767 18.91017 18.91017 20.58730 20.58730 22.35337 22.35337
23.56342 23.56342 26.09701 26.09701 27.68819 27.68819 29.37454 29.37454
38.87740 38.87740 44.37361 44.37361 46.15034 46.15034 48.50040 48.50040
52.33637 52.33637 54.46438 54.46438 55.91449 55.91449
0.7102935567248787 -0.1487 0.1487 0.5 -60.61800 -60.61800 -27.32047 -27.32047 -25.51152 -25.51152 -24.07317 -24.07317
15.28853 15.28853 16.10867 16.10867 16.55642 16.55642 17.15712 17.15712
18.23250 18.23250 18.92003 18.92003 20.61424 20.61424 22.35014 22.35014
23.55072 23.55072 26.10955 26.10955 27.67983 27.67983 29.41365 29.41365
39.02666 39.02666 44.33947 44.33947 46.09119 46.09119 48.37572 48.37572
52.40982 52.40982 54.57268 54.57268 55.93531 55.93531
0.72542035413874 -0.1574 0.1574 0.4912 -60.62778 -60.60845 -27.33439 -27.30277 -25.51620 -25.50280 -24.08506 -24.06598
15.26440 15.28284 16.07213 16.07884 16.50694 16.53570 17.14287 17.18814
18.20292 18.25167 18.91773 18.94788 20.61014 20.67199 22.29276 22.38994
23.49454 23.59109 26.09753 26.12838 27.61052 27.75058 29.21229 29.72623
39.16451 39.24677 44.28121 44.31415 45.90630 46.14122 48.07409 48.38013
52.42802 52.55972 54.60845 54.77150 55.91529 56.01871
0.7406624012453461 -0.1662 0.1662 0.4824 -60.63732 -60.59914 -27.34846 -27.28455 -25.52112 -25.49360 -24.09727 -24.05889
15.23567 15.27508 16.03122 16.04681 16.46044 16.51324 17.14140 17.22386
18.17591 18.27011 18.91654 18.97640 20.59962 20.72335 22.22733 22.42665
23.44550 23.63648 26.05952 26.13206 27.56647 27.83732 29.02085 30.05693
39.30035 39.47165 44.23021 44.27515 45.75272 46.16081 47.80001 48.37186
52.44600 52.69540 54.64159 54.91429 55.91436 56.11555
0.7559044483519523 -0.175 0.175 0.4736 -60.64659 -60.59010 -27.36268 -27.26582 -25.52627 -25.48401 -24.10977 -24.05188
15.20196 15.26449 15.98558 16.01459 16.42008 16.49092 17.15035 17.26282
18.15151 18.28799 18.91542 19.00485 20.58298 20.76827 22.15665 22.46055
23.40216 23.68610 25.99884 26.12641 27.54233 27.93337 28.84506 30.40114
39.43081 39.69918 44.17862 44.22893 45.63698 46.13537 47.57140 48.35306
52.46269 52.81054 54.66205 54.99077 55.93220 56.23375
0.7710889799548698 -0.1838 0.1838 0.4649 -60.65558 -60.58134 -27.37707 -27.24658 -25.53165 -25.47412 -24.12250 -24.04492
15.16325 15.25040 15.93581 15.98332 16.38820 16.47044 17.16721 17.30390
18.12974 18.30526 18.91335 19.03256 20.56068 20.80699 22.08371 22.49206
23.36314 23.73876 25.92004 26.11694 27.52892 28.02851 28.69536 30.75574
39.55196 39.92677 44.10340 44.20073 45.56007 46.05136 47.40711 48.32650
52.47613 52.89820 54.65055 55.01857 55.95753 56.37831
0.786331027061476 -0.1926 0.1926 0.4561 -60.66426 -60.57289 -27.39164 -27.22686 -25.53723 -25.46403 -24.13544 -24.03799
15.11996 15.23228 15.88303 15.95373 16.36613 16.45309 17.18980 17.34618
18.11065 18.32161 18.90947 19.05898 20.53324 20.84005 22.01129 22.52177
23.32728 23.79310 25.82823 26.10751 27.51418 28.10609 28.59159 31.11843
39.65938 40.15126 44.00467 44.19757 45.51108 45.91462 47.31382 48.29543
52.48345 52.95141 54.58344 55.03480 55.98086 56.54419
0.8015730741680821 -0.2014 0.2014 0.4473 -60.67260 -60.56477 -27.40638 -27.20668 -25.54301 -25.45385 -24.14851 -24.03106
15.07287 15.20987 15.82855 15.92638 16.35414 16.43978 17.21632 17.38881
18.09431 18.33639 18.90315 19.08379 20.50119 20.86826 21.94159 22.55035
23.29381 23.84772 25.72813 26.10015 27.48478 28.14422 28.56171 31.48734
39.74831 40.36881 43.89560 44.21642 45.44829 45.77802 47.27898 48.26336
52.48071 52.96405 54.45495 55.05980 56.00361 56.72115
0.8166998715819433 -0.2101 0.2101 0.4385 -60.68060 -60.55698 -27.42129 -27.18608 -25.54897 -25.44369 -24.16168 -24.02410
15.02305 15.18328 15.77370 15.90163 16.35144 16.43126 17.24535 17.43101
18.08082 18.34867 18.89412 19.10690 20.46510 20.89266 21.87616 22.57845
23.26233 23.90135 25.62358 26.09523 27.43058 28.14683 28.60673 31.86081
39.81401 40.57494 43.78715 44.25510 45.30083 45.73266 47.28205 48.23408
52.46265 52.93180 54.28001 55.08975 56.03363 56.90062
0.8319419186885495 -0.2189 0.2189 0.4297 -60.68824 -60.54955 -27.43639 -27.16508 -25.55508 -25.43368 -24.17486 -24.01708
14.97173 15.15298 15.71966 15.87965 16.35639 16.42837 17.27577 17.47194
18.07035 18.35723 18.88252 19.12848 20.42558 20.91439 21.81580 22.60665
23.23284 23.95282 25.51755 26.09180 27.35085 28.14639 28.69170 32.23728
39.85210 40.76462 43.68766 44.30538 45.10063 45.77088 47.30621 48.21155
52.42221 52.85276 54.07819 55.11568 56.07819 57.07661
0.8471839657951556 -0.2277 0.2277 0.4209 -60.69549 -60.54249 -27.45165 -27.14372 -25.56133 -25.42394 -24.18800 -24.01000
14.92018 15.11977 15.66740 15.86039 16.36649 16.43229 17.30670 17.51070
18.06311 18.36070 18.86899 19.14892 20.38330 20.93459 21.76068 22.63527
23.20569 24.00109 25.41224 26.08797 27.25460 28.15863 28.79034 32.61517
39.85911 40.93286 43.60141 44.33783 44.93405 45.84791 47.34071 48.19992
52.35035 52.72722 53.86888 55.13211 56.13987 57.24300
0.8623684973980731 -0.2365 0.2365 0.4122 -60.70235 -60.53580 -27.46708 -27.12204 -25.56769 -25.41458 -24.20101 -24.00281
14.86962 15.08470 15.61766 15.84362 16.37876 16.44444 17.33740 17.54637
18.05926 18.35779 18.85449 19.16882 20.33905 20.95424 21.71046 22.66421
23.18164 24.04523 25.30932 26.08124 27.15400 28.18267 28.89107 32.99274
39.83292 41.07555 43.52622 44.29227 44.89118 45.94461 47.37932 48.20351
52.23731 52.55653 53.67170 55.13734 56.21576 57.38723
0.8776105445046792 -0.2453 0.2453 0.4034 -60.70880 -60.52951 -27.48268 -27.10008 -25.57414 -25.40573 -24.21384 -23.99550
14.82114 15.04891 15.57104 15.82903 16.39115 16.46515 17.36724 17.57802
18.05883 18.34774 18.84007 19.18885 20.29368 20.97416 21.66451 22.69267
23.16188 24.08434 25.21023 26.06905 27.05927 28.21379 28.98866 33.36801
39.77307 41.19048 43.45044 44.17669 44.98710 46.05070 47.41877 48.22676
52.07617 52.34271 53.50362 55.13182 56.29910 57.51524
0.8928525916112854 -0.2541 0.2541 0.3946 -60.71483 -60.52361 -27.49842 -27.07789 -25.58065 -25.39752 -24.22640 -23.98805
14.77572 15.01356 15.52796 15.81628 16.40348 16.49278 17.39567 17.60482
18.06139 18.33084 18.82652 19.20966 20.24807 20.99498 21.62210 22.71891
23.14805 24.11753 25.11642 26.04966 26.97721 28.24796 29.08033 33.73858
39.68095 41.27812 43.35450 44.07263 45.16205 46.15795 47.45746 48.27428
51.86653 52.09078 53.37298 55.11678 56.38128 57.45563
0.9079793890251466 -0.2628 0.2628 0.3858 -60.72044 -60.51811 -27.51430 -27.05552 -25.58721 -25.39005 -24.23860 -23.98045
14.73418 14.97971 15.48875 15.80508 16.41635 16.52485 17.42218 17.62615
18.06576 18.30900 18.81419 19.23176 20.20305 21.01721 21.58258 22.74027
23.14207 24.14389 25.02963 26.02304 26.91099 28.28233 29.16437 34.10136
39.55977 41.34157 43.22707 44.02176 45.38128 46.25896 47.49413 48.35100
51.61367 51.81108 53.27768 55.09365 56.45324 57.38353
0.9232214361317528 -0.2716 0.2716 0.377 -60.72561 -60.51303 -27.53030 -27.03301 -25.59378 -25.38344 -24.25038 -23.97268
14.69725 14.94831 15.45367 15.79519 16.43006 16.55908 17.44627 17.64162
18.06951 18.28616 18.80294 19.25536 20.15941 21.04127 21.54550 22.75365
23.14541 24.16256 24.95208 25.99140 26.86032 28.31499 29.23960 34.45225
39.41465 41.38565 43.07844 44.02050 45.62869 46.34802 47.52651 48.46178
51.32602 51.51676 53.21057 55.06409 56.50681 57.33123
0.9384634832383588 -0.2804 0.2804 0.3682 -60.73035 -60.50835 -27.54642 -27.01041 -25.60036 -25.37779 -24.26165 -23.96474
14.66548 14.92016 15.42291 15.78644 16.44454 16.59358 17.46736 17.65103
18.06895 18.26810 18.79252 19.28029 20.11791 21.06753 21.51067 22.75666
23.15786 24.17295 24.88650 25.95872 26.82233 28.34462 29.30518 34.78555
39.25273 41.41575 42.92752 44.04875 45.89200 46.42305 47.55074 48.61023
51.01521 51.21864 53.16496 55.03001 56.53680 57.29844
0.9536480148412764 -0.2892 0.2892 0.3595 -60.73466 -60.50408 -27.56262 -26.98778 -25.60691 -25.37318 -24.27234 -23.95661
14.63936 14.89592 15.39659 15.77871 16.45950 16.62667 17.48468 17.65433
18.06099 18.26043 18.78273 19.30591 20.07934 21.09632 21.47816 22.74843
23.17672 24.17525 24.83580 25.92963 26.79292 28.37031 29.36046 35.09317
39.08379 41.43692 42.78843 44.08881 46.15409 46.49003 47.56202 48.79697
50.69577 50.92450 53.13671 54.99348 56.54304 57.28806
0.9688900619478824 -0.298 0.298 0.3507 -60.73853 -60.50022 -27.57890 -26.96516 -25.61342 -25.36970 -24.28240 -23.94830
14.61925 14.87612 15.37480 15.77193 16.47453 16.65687 17.49682 17.65194
18.04679 18.26471 18.77369 19.33108 20.04464 21.12783 21.44831 22.72928
23.19745 24.17088 24.80237 25.90832 26.76798 28.39138 29.40495 35.36353
38.92105 41.45341 42.66937 44.12854 46.36820 46.58476 47.55575 49.01827
50.38267 50.64368 53.12383 54.95644 56.52962 57.28870
0.9841321090544886 -0.3068 0.3068 0.3419 -60.74197 -60.49676 -27.59522 -26.94261 -25.61989 -25.36739 -24.29175 -23.93980
14.60543 14.86115 15.35760 15.76606 16.48919 16.68296 17.50116 17.64557
18.03156 18.27807 18.76586 19.35415 20.01504 21.16207 21.42172 22.69975
23.21537 24.16251 24.78750 25.89799 26.74414 28.40735 29.43826 35.58061
38.78195 41.46849 42.57492 44.15999 46.46105 46.76567 47.52895 49.26444
50.08955 50.39357 53.12564 54.92046 56.50187 57.29106
0.9992589064683498 -0.3155 0.3155 0.3331 -60.74499 -60.49370 -27.61157 -26.92017 -25.62629 -25.36631 -24.30035 -23.93113
14.59809 14.85127 15.34498 15.76107 16.50307 16.70398 17.49377 17.63894
18.02050 18.29653 18.76004 19.37305 19.99203 21.19867 21.39927 22.65998
23.22731 24.15311 24.79119 25.90068 26.71900 28.41783 29.46011 35.72469
38.68723 41.48433 42.50767 44.17812 46.48908 46.95117 47.48402 49.50778
49.83124 50.21213 53.14197 54.88664 56.46430 57.28784
1.0145009535749558 -0.3243 0.3243 0.3243 -60.74759 -60.49102 -27.62791 -26.89789 -25.63263 -25.36646 -24.30817 -23.92229
14.59734 14.84666 15.33689 15.75694 16.51583 16.71936 17.47177 17.63579
18.01621 18.31705 18.75725 19.38550 19.97732 21.23652 21.38241 22.60990
23.23256 24.14452 24.81259 25.91739 26.69123 28.42257 29.47027 35.77745
38.65572 41.50192 42.46937 44.18016 46.49459 47.05265 47.44112 49.53134
49.76645 50.18525 53.17248 54.85555 56.42049 57.27562
1.0425601766575716 -0.3081 0.3081 0.3081 -60.76430 -60.47350 -27.65383 -26.87560 -25.64688 -25.36180 -24.31902 -23.90547
14.73192 15.01600 15.43638 15.84594 16.55376 16.78165 17.45925 17.71355
18.03778 18.29410 18.81672 19.28212 19.85764 21.06624 21.27473 22.49769
23.10565 24.07400 24.50675 25.55813 26.62912 28.79233 29.77485 36.13699
38.42843 41.26429 42.57197 44.46951 46.61218 46.85254 47.44071 49.33958
49.94104 50.46534 52.93194 54.63390 56.34217 57.17093
1.0706193997401874 -0.2919 0.2919 0.2919 -60.78162 -60.45544 -27.67724 -26.85511 -25.65795 -25.35757 -24.33014 -23.89048
14.85138 15.16564 15.55032 15.90554 16.59140 16.83655 17.40732 17.79970
18.04572 18.26906 18.89714 19.22465 19.76873 20.88209 21.19085 22.36765
22.98469 23.94243 24.20012 25.29257 26.59132 29.21237 30.12267 36.42464
38.24674 41.02156 42.71128 44.67650 46.45397 46.70393 47.49332 49.14107
50.16977 50.76872 52.73356 54.46324 56.26415 57.03517
